Application:AntPat 2.0
File:SC34A-SF2SNF(D00)_430.ana
Brand:Sinclair Technologies Inc.
Model:SC34A-SF2SNF(D00)
Description:
Type:OMNI
Maximum Gain:10
Low Freq(MHz):
High Freq(MHz):
Test Freq(MHz):430
Magnitude Type:TRUE LOG
Horizontal Pattern:
0.00 10.000
:
Vertical Pattern:
0.00 8.420
1.00 9.730
2.00 9.700
3.00 9.040
4.00 7.850
5.00 6.050
6.00 3.480
7.00 -0.050
8.00 -3.390
9.00 -5.230
10.00 -5.130
11.00 -5.300
12.00 -6.840
13.00 -9.210
14.00 -15.380
15.00 -33.040
16.00 -15.990
17.00 -11.420
18.00 -9.710
19.00 -9.810
20.00 -10.930
21.00 -14.030
22.00 -20.250
23.00 -23.960
24.00 -16.290
25.00 -12.340
26.00 -10.230
27.00 -9.410
28.00 -10.050
29.00 -11.760
30.00 -15.030
31.00 -21.840
32.00 -21.010
33.00 -13.940
34.00 -10.260
35.00 -7.850
36.00 -6.690
37.00 -6.600
38.00 -6.800
39.00 -7.930
40.00 -10.040
41.00 -13.270
42.00 -16.210
43.00 -15.630
44.00 -12.570
45.00 -10.080
46.00 -8.630
47.00 -8.170
48.00 -8.210
49.00 -8.410
50.00 -9.480
51.00 -10.710
52.00 -12.620
53.00 -14.270
54.00 -14.230
55.00 -13.240
56.00 -11.650
57.00 -10.400
58.00 -9.290
59.00 -8.540
60.00 -8.120
61.00 -7.890
62.00 -8.090
63.00 -8.320
64.00 -8.730
65.00 -9.630
66.00 -10.950
67.00 -12.080
68.00 -13.810
69.00 -15.190
70.00 -15.870
71.00 -16.250
72.00 -17.620
73.00 -18.420
74.00 -19.320
75.00 -19.880
76.00 -21.570
77.00 -23.020
78.00 -24.140
79.00 -24.360
80.00 -23.020
81.00 -22.660
82.00 -22.220
83.00 -24.000
84.00 -23.390
85.00 -23.900
86.00 -32.130
87.00 -45.620
88.00 -47.540
89.00 -47.540
90.00 -47.540
91.00 -47.540
92.00 -47.540
93.00 -47.540
94.00 -47.540
95.00 -40.700
96.00 -27.890
97.00 -33.430
98.00 -41.410
99.00 -32.970
100.00 -25.910
101.00 -23.090
102.00 -20.230
103.00 -18.480
104.00 -17.060
105.00 -15.940
106.00 -15.550
107.00 -15.130
108.00 -14.660
109.00 -13.790
110.00 -13.190
111.00 -12.510
112.00 -11.820
113.00 -10.680
114.00 -10.330
115.00 -9.780
116.00 -9.450
117.00 -9.270
118.00 -9.120
119.00 -9.370
120.00 -9.400
121.00 -10.140
122.00 -10.380
123.00 -11.080
124.00 -12.070
125.00 -12.820
126.00 -12.920
127.00 -12.800
128.00 -11.970
129.00 -11.060
130.00 -9.400
131.00 -8.540
132.00 -7.810
133.00 -7.160
134.00 -7.410
135.00 -7.790
136.00 -8.590
137.00 -10.210
138.00 -11.780
139.00 -12.250
140.00 -11.040
141.00 -9.960
142.00 -8.580
143.00 -7.890
144.00 -7.960
145.00 -8.910
146.00 -10.580
147.00 -14.240
148.00 -20.060
149.00 -19.770
150.00 -14.930
151.00 -12.020
152.00 -11.270
153.00 -11.390
154.00 -12.540
155.00 -16.000
156.00 -20.110
157.00 -17.430
158.00 -13.440
159.00 -10.360
160.00 -9.010
161.00 -8.500
162.00 -9.210
163.00 -10.760
164.00 -11.900
165.00 -10.160
166.00 -6.510
167.00 -4.340
168.00 -2.730
169.00 -1.900
170.00 -1.260
171.00 -0.480
172.00 1.290
173.00 3.600
174.00 5.860
175.00 7.700
176.00 8.990
177.00 9.760
178.00 10.000
179.00 9.660
180.00 8.630
181.00 6.820
182.00 3.960
183.00 -0.900
184.00 -8.020
185.00 -5.180
186.00 -0.750
187.00 1.290
188.00 1.740
189.00 0.950
190.00 -0.730
191.00 -2.860
192.00 -3.290
193.00 -2.390
194.00 -0.670
195.00 -0.050
196.00 -0.380
197.00 -1.790
198.00 -4.710
199.00 -10.650
200.00 -29.700
201.00 -11.840
202.00 -7.010
203.00 -5.060
204.00 -4.880
205.00 -6.060
206.00 -9.090
207.00 -15.760
208.00 -25.640
209.00 -12.860
210.00 -8.650
211.00 -7.030
212.00 -6.880
213.00 -7.830
214.00 -10.770
215.00 -15.840
216.00 -23.040
217.00 -14.980
218.00 -10.190
219.00 -8.100
220.00 -6.730
221.00 -6.910
222.00 -7.760
223.00 -9.940
224.00 -13.780
225.00 -21.810
226.00 -23.720
227.00 -14.980
228.00 -11.360
229.00 -9.430
230.00 -8.480
231.00 -9.010
232.00 -9.990
233.00 -11.710
234.00 -14.900
235.00 -16.200
236.00 -14.880
237.00 -12.810
238.00 -11.050
239.00 -9.960
240.00 -9.560
241.00 -9.230
242.00 -9.970
243.00 -11.140
244.00 -12.920
245.00 -15.720
246.00 -20.670
247.00 -30.220
248.00 -28.280
249.00 -21.730
250.00 -17.060
251.00 -14.880
252.00 -13.500
253.00 -12.280
254.00 -11.700
255.00 -11.200
256.00 -10.660
257.00 -10.620
258.00 -10.910
259.00 -10.770
260.00 -10.970
261.00 -11.840
262.00 -12.550
263.00 -14.020
264.00 -15.380
265.00 -16.750
266.00 -19.330
267.00 -21.070
268.00 -22.340
269.00 -23.250
270.00 -24.960
271.00 -20.520
272.00 -17.680
273.00 -15.390
274.00 -13.430
275.00 -11.730
276.00 -11.190
277.00 -10.630
278.00 -10.060
279.00 -9.750
280.00 -9.560
281.00 -9.260
282.00 -9.090
283.00 -9.330
284.00 -9.380
285.00 -9.560
286.00 -9.520
287.00 -10.540
288.00 -12.010
289.00 -14.430
290.00 -17.960
291.00 -21.330
292.00 -21.180
293.00 -17.590
294.00 -14.440
295.00 -12.420
296.00 -10.460
297.00 -9.820
298.00 -9.100
299.00 -9.190
300.00 -9.050
301.00 -9.250
302.00 -9.340
303.00 -9.970
304.00 -10.540
305.00 -11.430
306.00 -11.470
307.00 -11.660
308.00 -11.010
309.00 -10.510
310.00 -10.420
311.00 -10.660
312.00 -11.930
313.00 -14.830
314.00 -19.590
315.00 -21.200
316.00 -15.480
317.00 -11.940
318.00 -9.730
319.00 -8.580
320.00 -8.580
321.00 -9.820
322.00 -12.810
323.00 -19.290
324.00 -27.400
325.00 -14.290
326.00 -10.710
327.00 -8.420
328.00 -7.750
329.00 -8.400
330.00 -10.680
331.00 -16.300
332.00 -32.620
333.00 -15.010
334.00 -10.150
335.00 -7.730
336.00 -7.260
337.00 -8.030
338.00 -11.670
339.00 -21.970
340.00 -16.930
341.00 -8.470
342.00 -4.890
343.00 -3.050
344.00 -2.320
345.00 -2.870
346.00 -4.180
347.00 -5.570
348.00 -4.610
349.00 -1.980
350.00 0.180
351.00 1.310
352.00 1.270
353.00 -0.270
354.00 -3.980
355.00 -12.140
356.00 -7.960
357.00 -1.610
358.00 3.540
359.00 6.690
:

